165 0.004982
177 0.004987
185 0.004992
198 0.002103
205 0.002992
210 0.000997
183 0.0
127 0.0
125 0.0
146 0.0
154 0.0
162 0.0
165 0.0
164 0.0
164 0.001995
172 0.002046
178 0.002051
189 0.001991
195 0.002952
201 0.001999
207 0.00301
181 0.003052
132 0.002963
138 0.003944
150 0.003959
160 0.00399
165 0.00395
166 0.003989
162 0.00399
163 0.003947
170 0.005039
180 0.005914
186 0.006005
194 0.005971
197 0.005984
168 0.005985
123 0.005976
124 0.006975
141 0.007892
147 0.006995
151 0.00602
156 0.006982
153 0.005984
152 0.005984
159 0.005981
165 0.006024
174 0.003985
179 0.005002
183 0.004035
176 0.005014
144 0.004021
99 0.002992
118 0.001995
130 0.001995
136 0.002028
144 0.000969
141 0.001035
139 0.001054
142 0.000997
150 0.001005
162 0.000999
169 0.001016
180 0.0
185 0.0
164 0.000998
91 0.001995
86 0.000998
109 0.003989
123 0.004986
132 0.006051
132 0.007012
124 0.007015
125 0.007013
135 0.006883
144 0.007024
153 0.007012
161 0.006969
168 0.006981
147 0.005984
78 0.004976
80 0.004039
94 0.00399
106 0.003947
113 0.003959
116 0.002995
108 0.002028
110 0.001041
119 0.000998
132 0.001016
139 0.000988
150 0.000993
121 0.000998
74 0.000997
54 0.000997
66 0.001995
80 0.002991
84 0.002992
91 0.002992
91 0.002992
88 0.003946
92 0.002993
104 0.00403
111 0.003992
121 0.004987
123 0.005001
83 0.004976
32 0.00502
46 0.004982
55 0.006019
58 0.006981
69 0.007926
70 0.00798
70 0.007091
72 0.005987
82 0.005984
95 0.004988
105 0.002991
115 0.003955
112 0.003989
70 0.00399
37 0.004103
49 0.004189
64 0.002001
69 0.000999
78 0.002039
78 0.000993
79 0.0
86 0.000998
102 0.0
110 0.0
119 0.000997
127 0.000998
100 0.000998
49 0.001027
64 0.000998
73 0.002038
77 0.00199
91 0.002001
96 0.001995
97 0.001996
104 0.002029
119 0.002991
129 0.001994
139 0.002006
146 0.002994
140 0.002982
86 0.003
73 0.003003
84 0.003026
89 0.003035
90 0.002993
106 0.004957
111 0.005976
112 0.007938
117 0.007947
129 0.005985
139 0.00399
146 0.004038
157 0.00298
164 0.002987
143 0.001994
92 0.002992
88 0.001995
106 0.002036
107 0.002012
110 0.001992
124 0.0
125 0.0
124 0.000997
131 0.002021
144 0.002011
151 0.001995
161 0.001979
165 0.001987
173 0.004038
163 0.004023
122 0.003984
106 0.004041
124 0.005022
125 0.006025
128 0.006023
136 0.005974
135 0.005985
133 0.006028
140 0.007011
148 0.006981
154 0.006327
160 0.006002
167 0.004022
173 0.002974
176 0.003989
129 0.002024
106 0.001007
116 0.001002
123 0.000998
122 0.0
128 0.0
139 0.0
137 0.0
141 0.0
154 0.0
162 0.0
173 0.000999
180 0.001002
187 0.001005
195 0.002026
202 0.001972
155 0.002061
102 0.001996
113 0.002026
130 0.001995
127 0.001841
131 0.002034
146 0.001995
145 0.001995
143 0.001996
148 0.002993
162 0.00402
174 0.004038
180 0.00399
188 0.003988
195 0.003993
200 0.00399
206 0.005039
199 0.006018
115 0.006753
114 0.006981
133 0.006981
139 0.007039
139 0.006951
147 0.006979
143 0.006942
141 0.006983
146 0.006955
160 0.005984
166 0.005949
176 0.006037
184 0.004987
187 0.005974
194 0.005016
197 0.002998
156 0.002004
94 0.001031
112 0.001013
123 0.001028
120 0.001012
123 0.0
130 0.000998
125 0.0
125 0.0
137 0.001995
149 0.001996
158 0.003992
166 0.002992
175 0.004045
178 0.00399
184 0.004033
161 0.004035
85 0.006022
91 0.005982
104 0.006982
103 0.00603
105 0.005017
112 0.00503
112 0.004042
110 0.003002
114 0.003002
130 0.00205
140 0.002994
148 0.001984
159 0.001994
164 0.001039
171 0.000997
177 0.000958
182 0.001954
110 0.000998
54 0.0
64 0.000989
81 0.001128
78 0.0
79 0.001037
88 0.000997
86 0.000998
85 0.000998
99 0.000969
107 0.000872
120 0.001994
131 0.004021
137 0.005878
147 0.007946
151 0.007023
146 0.006026
58 0.006021
42 0.006986
61 0.004981
72 0.004022
72 0.00402
81 0.002039
78 0.002029
74 0.002023
83 0.002044
101 0.001054
111 0.00204
127 0.001037
135 0.001995
142 0.001005
148 0.0
128 0.000998
39 0.002992
34 0.00395
55 0.004989
56 0.005035
61 0.004989
67 0.004987
68 0.004987
73 0.005946
82 0.005945
102 0.005984
113 0.006981
125 0.006971
137 0.007979
148 0.004965
153 0.003991
162 0.003035
79 0.001012
34 0.0
38 0.0
54 0.0
54 0.000844
56 0.000998
64 0.001011
66 0.001008
71 0.001032
79 0.001029
98 0.001991
116 0.003
127 0.00423
141 0.005987
150 0.005984
159 0.00698
165 0.007015
174 0.004996
130 0.004036
39 0.003032
45 0.0
61 0.001
66 0.001021
72 0.002036
79 0.00097
74 0.0
76 0.001995
85 0.002993
105 0.004669
124 0.004986
132 0.005018
145 0.006982
154 0.007978
158 0.005984
151 0.005984
56 0.003989
32 0.00104
52 0.001946
68 0.002032
69 0.0
80 0.0
79 0.0
79 0.0
90 0.0
106 0.000998
123 0.000998
141 0.001006
150 0.000998
164 0.001059
171 0.001036
169 0.001005
66 0.002961
31 0.002946
45 0.003018
57 0.002993
54 0.00402
67 0.004974
73 0.005976
74 0.006953
86 0.007973
103 0.007979
115 0.006983
132 0.007978
147 0.00701
157 0.007013
169 0.006019
177 0.005984
188 0.005984
200 0.002937
189 0.004022
77 0.0
41 0.0
52 0.001995
73 0.002042
72 0.001994
79 0.001995
83 0.00199
82 0.001994
91 0.002959
110 0.003027
122 0.002993
142 0.002951
155 0.003041
164 0.002993
174 0.003021
184 0.002996
193 0.00299
178 0.002963
110 0.003981
47 0.006008
66 0.006021
80 0.005948
87 0.006982
95 0.006973
89 0.006991
85 0.007016
91 0.006021
112 0.006026
131 0.006031
148 0.005017
164 0.005009
174 0.003988
179 0.003022
190 0.002992
179 0.002056
113 0.001056
39 0.000998
49 0.0
66 0.001995
69 0.000998
76 0.002035
83 0.000997
83 0.002
87 0.003567
105 0.004023
129 0.004021
143 0.003982
161 0.00399
169 0.003989
181 0.004022
193 0.003986
199 0.003989
212 0.004022
147 0.004986
75 0.005025
42 0.007006
57 0.007979
73 0.006015
74 0.00703
84 0.006019
85 0.005952
82 0.006025
88 0.006016
110 0.005987
134 0.005018
146 0.006029
162 0.005029
169 0.004988
179 0.004021
187 0.004025
196 0.003992
116 0.002998
74 0.003957
45 0.004035
71 0.003991
83 0.002996
91 0.003978
93 0.002994
88 0.002001
91 0.0
106 0.002033
126 0.002992
145 0.002968
166 0.003985
175 0.004024
186 0.004022
192 0.004022
181 0.003993
69 0.004022
34 0.00404
48 0.006028
67 0.005984
68 0.005983
80 0.006029
82 0.005983
82 0.006996
95 0.00703
109 0.007012
132 0.006984
149 0.006984
164 0.00698
177 0.007975
181 0.00797
192 0.007039
205 0.004987
142 0.00199
67 0.003002
28 0.00197
45 0.001991
62 0.002038
67 0.001009
74 0.000984
74 0.000995
73 0.001036
86 0.000998
105 0.000971
121 0.001019
142 0.002994
160 0.003013
169 0.003027
182 0.003899
194 0.004982
177 0.005038
63 0.005466
31 0.006017
51 0.006014
72 0.005982
79 0.006949
88 0.006969
84 0.005032
75 0.004983
80 0.004987
104 0.003051
131 0.000998
144 0.0
160 0.0
172 0.0
179 0.001011
156 0.002993
81 0.00199
16 0.003027
37 0.002998
55 0.002945
63 0.004523
76 0.00503
78 0.006001
77 0.004985
89 0.006034
103 0.005951
130 0.007019
141 0.007979
161 0.007019
176 0.005984
185 0.006977
194 0.00502
206 0.004987
174 0.004981
46 0.005026
16 0.003986
33 0.004004
52 0.003988
54 0.003024
67 0.001041
69 0.0
72 0.001005
81 0.001995
106 0.003004
129 0.004982
148 0.006005
163 0.006028
177 0.006026
186 0.00598
198 0.005959
205 0.006026
186 0.005985
59 0.006469
25 0.006943
42 0.007335
56 0.007974
72 0.006982
83 0.006013
83 0.005984
73 0.004987
80 0.005982
99 0.004984
127 0.005017
143 0.004976
162 0.005029
173 0.006018
184 0.005021
191 0.00399
167 0.004003
89 0.003988
16 0.003989
25 0.004021
57 0.002999
73 0.002029
82 0.003027
80 0.001996
77 0.000999
82 0.000989
110 0.0
135 0.000998
150 0.000998
170 0.000997
181 0.000998
193 0.001001
205 0.000897
213 0.002987
140 0.004023
25 0.004979
14 0.004996
41 0.004988
56 0.006981
63 0.007973
72 0.007979
69 0.005985
69 0.006138
81 0.005976
97 0.005984
128 0.005025
155 0.004987
168 0.005021
184 0.004987
197 0.00304
201 0.002036
212 0.000998
225 0.000999
148 0.0
45 0.000998
22 0.001995
42 0.002993
71 0.002993
79 0.003019
87 0.002994
76 0.003034
73 0.003522
85 0.004039
113 0.003995
131 0.003984
156 0.004031
168 0.004917
181 0.004987
189 0.006015
195 0.005983
176 0.006017
49 0.00595
14 0.005985
25 0.006987
55 0.006018
71 0.006011
93 0.004993
90 0.004981
77 0.004027
83 0.003989
105 0.002936
128 0.003994
156 0.00399
171 0.002992
186 0.000986
194 0.000997
201 0.0
122 0.0
20 0.0
0 0.0
26 0.0
43 0.0
58 0.0
66 0.000998
62 0.002029
63 0.001996
74 0.003004
102 0.002028
132 0.002987
150 0.002995
170 0.002975
183 0.003032
191 0.002994
133 0.00396
46 0.003957
0 0.006014
5 0.005985
32 0.005985
42 0.007976
57 0.007946
57 0.006983
51 0.005984
62 0.004989
78 0.005993
109 0.005034
128 0.005984
149 0.004969
166 0.004987
177 0.00299
145 0.002996
34 0.003989
59 0.003004
66 0.002992
82 0.001995
92 0.003009
100 0.003024
97 0.002992
91 0.002977
100 0.001983
108 0.003012
124 0.001053
133 0.001996
143 0.0
151 0.0
139 0.0
72 0.0
51 0.00089
58 0.002985
76 0.004032
86 0.002994
92 0.005022
92 0.007028
91 0.006989
96 0.006997
110 0.005986
123 0.005977
135 0.004969
144 0.006
151 0.005032
158 0.005978
121 0.005984
77 0.004987
52 0.002995
67 0.0
74 0.000997
82 0.000995
90 0.000966
91 0.0
93 0.0
102 0.000995
112 0.000972
128 0.001003
137 0.001996
148 0.001856
156 0.001965
160 0.002984
132 0.00399
69 0.004009
62 0.004032
80 0.004112
90 0.003954
98 0.004986
103 0.003989
100 0.004987
99 0.004947
109 0.006941
119 0.006939
132 0.006947
144 0.006022
149 0.00699
155 0.005969
158 0.007022
116 0.005986
63 0.004009
63 0.003989
82 0.00399
92 0.004016
97 0.004034
100 0.002988
99 0.003002
101 0.003034
112 0.002997
125 0.002992
137 0.002991
144 0.002994
154 0.002992
162 0.001995
165 0.001995
111 0.000963
59 0.000997
60 0.000997
78 0.000986
84 0.001069
91 0.001029
96 0.000997
96 0.00101
101 0.000998
108 0.001031
124 0.0
138 0.000998
150 0.0
158 0.0
166 0.0
169 0.0
174 0.000998
129 0.001999
75 0.003003
65 0.001995
79 0.002994
92 0.001994
99 0.002992
102 0.003042
99 0.005023
100 0.004956
107 0.004987
124 0.005971
135 0.006975
149 0.00702
158 0.006984
163 0.006979
169 0.007015
137 0.006966
82 0.006976
69 0.007022
81 0.00695
100 0.006878
108 0.007948
114 0.005987
110 0.007978
106 0.005985
112 0.006987
128 0.006981
139 0.007013
154 0.006986
165 0.003989
170 0.004951
177 0.003989
170 0.004987
99 0.003988
67 0.003989
75 0.004021
95 0.004028
103 0.003993
109 0.003023
109 0.004033
108 0.002035
115 0.001002
127 0.002032
140 0.000996
152 0.002014
165 0.002027
170 0.001994
176 0.001995
181 0.000998
150 0.0
91 0.0
73 0.0
84 0.0
104 0.0
109 0.0
116 0.0
113 0.002029
108 0.002035
117 0.002993
126 0.00399
144 0.004996
158 0.006954
163 0.006969
170 0.007024
176 0.006966
150 0.007085
96 0.006977
76 0.006953
88 0.006881
106 0.007014
116 0.00702
125 0.006024
116 0.004998
111 0.006015
116 0.004983
125 0.005984
141 0.005025
154 0.00495
160 0.004987
168 0.004147
145 0.002994
100 0.001986
64 0.001997
71 0.002036
94 0.001985
103 0.001063
110 0.0
108 0.001022
103 0.0
105 0.0
118 0.0
132 0.002026
144 0.003021
154 0.003034
162 0.004885
166 0.005018
160 0.005986
85 0.006988
59 0.006973
61 0.006021
82 0.004988
88 0.002993
96 0.001987
96 0.001985
95 0.002029
100 0.001949
108 0.001001
124 0.001047
136 0.002028
147 0.0
153 0.0
160 0.0
165 0.0
124 0.0
79 0.0
57 0.0
73 0.000999
87 0.0
95 0.0
99 0.00085
96 0.001044
93 0.002994
98 0.002961
114 0.002953
131 0.002959
139 0.002994
149 0.002992
155 0.002993
159 0.002989
111 0.002993
71 0.003992
58 0.005021
76 0.004983
92 0.00502
102 0.004994
103 0.006016
96 0.007012
95 0.006973
101 0.00795
118 0.007948
131 0.007008
141 0.007966
148 0.006988
155 0.007024
136 0.006018
62 0.005986
46 0.005948
60 0.004019
78 0.002972
84 0.002987
92 0.002038
89 0.001995
87 0.001044
96 0.001996
112 0.001039
122 0.001042
136 0.000997
142 0.000999
150 0.000999
125 0.0
76 0.00103
40 0.000997
52 0.001034
64 0.000998
72 0.000998
79 0.00101
84 0.000969
85 0.002002
89 0.001996
104 0.001996
121 0.002993
131 0.004024
142 0.004028
147 0.004024
154 0.004961
129 0.00503
80 0.004994
46 0.004814
60 0.004987
76 0.004987
83 0.004979
91 0.005021
89 0.004996
86 0.005985
91 0.007027
104 0.007012
123 0.005989
132 0.006017
142 0.003974
151 0.003983
154 0.003979
100 0.003989
61 0.003009
55 0.001996
78 0.002026
86 0.000984
97 0.00103
99 0.00203
96 0.001032
100 0.000998
115 0.000998
126 0.000997
142 0.000997
150 0.000997
158 0.000953
166 0.000998
165 0.000998
96 0.000997
59 0.001996
67 0.002979
85 0.004793
92 0.005497
99 0.006018
102 0.007102
104 0.007041
108 0.006981
124 0.007015
134 0.006421
150 0.006148
161 0.007015
168 0.005984
174 0.007006
181 0.005029
171 0.005019
98 0.004022
77 0.004023
91 0.004021
107 0.002019
110 0.002992
118 0.001995
116 0.00204
116 0.000997
126 0.0
140 0.0
150 0.0
164 0.0
169 0.0
176 0.0
182 0.002006
179 0.001982
115 0.00203
87 0.002947
97 0.003988
117 0.00487
125 0.005985
131 0.007013
128 0.005967
122 0.004987
125 0.005039
140 0.005015
156 0.004027
164 0.004028
173 0.002004
180 0.00099
181 0.001003
124 0.001989
88 0.00204
85 0.000994
105 0.0
111 0.0
116 0.001042
117 0.001029
114 0.0
117 0.001051
127 0.0
140 0.000993
155 0.000997
162 0.001994
171 0.001038
175 0.002025
176 0.0
126 0.0
78 0.0
76 0.0
92 0.0
103 0.000997
109 0.000997
112 0.000998
109 0.00095
113 0.002995
121 0.002903
137 0.003
146 0.002994
159 0.004018
168 0.003989
172 0.00399
170 0.003958
114 0.006016
74 0.006026
78 0.005987
97 0.005994
108 0.007012
117 0.007853
116 0.007966
108 0.007969
109 0.006022
117 0.006949
133 0.006015
147 0.004985
154 0.004983
163 0.005008
164 0.004995
104 0.004973
63 0.005024
70 0.004987
93 0.005026
101 0.005029
113 0.004019
111 0.005192
107 0.004026
112 0.003995
126 0.003029
136 0.003023
151 0.002989
161 0.000989
165 0.0
146 0.0
97 0.00201
57 0.0
66 0.002033
78 0.003021
88 0.004982
96 0.006017
97 0.006012
97 0.006016
107 0.005984
113 0.006981
132 0.006957
146 0.006981
152 0.006984
161 0.006974
164 0.00697
135 0.006986
76 0.007979
59 0.006983
74 0.007949
88 0.006942
93 0.007983
102 0.007935
103 0.007946
105 0.007996
115 0.006036
126 0.00699
142 0.005998
151 0.005982
161 0.003983
170 0.003996
172 0.002989
114 0.003018
77 0.002983
85 0.002985
107 0.003022
114 0.002037
124 0.002024
122 0.003001
119 0.002993
124 0.002992
140 0.000991
149 0.001989
163 0.00099
169 0.001038
177 0.0
178 0.0
147 0.0
89 0.0
93 0.0
105 0.0
115 0.000998
121 0.000998
126 0.002959
124 0.00399
127 0.003025
140 0.003913
156 0.005938
164 0.005984
174 0.005985
181 0.005984
186 0.005984
182 0.006027
130 0.005888
92 0.005956
101 0.00605
112 0.005997
118 0.007013
123 0.007032
126 0.007013
124 0.007006
125 0.007943
136 0.005981
150 0.005983
158 0.005987
167 0.004099
174 0.002987
177 0.002026
181 0.002012
145 0.00298
97 0.001029
91 0.0
111 0.000998
118 0.001996
126 0.001997
126 0.002993
120 0.002998
121 0.003062
131 0.002954
143 0.002981
156 0.002882
162 0.003026
169 0.002994
173 0.002963
173 0.002999
112 0.004041
86 0.006016
90 0.006977
106 0.005994
111 0.005991
117 0.005985
115 0.005989
112 0.005983
117 0.006931
128 0.005017
140 0.004027
151 0.004975
158 0.00397
164 0.004987
170 0.001985
172 0.001997
124 0.001995
73 0.000998
74 0.0
89 0.0
98 0.0
101 0.0
105 0.0
104 0.0
106 0.0
117 0.002979
127 0.003951
142 0.00403
153 0.003994
159 0.006019
164 0.00699
168 0.00599
173 0.004984
143 0.005984
78 0.005976
71 0.005981
88 0.005983
98 0.005978
104 0.005019
106 0.003985
103 0.00498
102 0.003991
114 0.003959
123 0.003984
138 0.003987
145 0.003039
153 0.002025
159 0.002011
163 0.002052
157 0.001008
104 0.0
75 0.0
76 0.0
98 0.00199
105 0.001995
114 0.001996
111 0.001994
104 0.001964
108 0.001966
120 0.00295
133 0.002992
147 0.002929
154 0.002963
161 0.003025
165 0.003046
170 0.003947
118 0.004044
78 0.00502
66 0.005945
86 0.005983
94 0.005984
103 0.00602
105 0.006015
100 0.005976
102 0.006987
107 0.005946
122 0.006969
135 0.007978
145 0.005973
152 0.007103
158 0.005952
163 0.00698
151 0.007014
106 0.005987
58 0.005013
71 0.003989
84 0.004984
95 0.001997
102 0.002047
98 0.001033
93 0.000997
97 0.001039
112 0.001042
125 0.003171
136 0.000998
145 0.001996
150 0.000996
156 0.001995
137 0.0
93 0.000969
57 0.0
68 0.0
87 0.0
97 0.0
104 0.0
100 0.0
95 0.001001
99 0.001981
114 0.001852
131 0.001995
139 0.002993
149 0.003011
154 0.00299
161 0.002942
132 0.004022
84 0.004033
51 0.004031
69 0.003985
79 0.004024
88 0.00403
92 0.00399
90 0.003991
89 0.004026
96 0.007041
109 0.007028
126 0.007014
136 0.007017
146 0.007006
151 0.007075
158 0.007029
140 0.006973
92 0.006965
51 0.006027
61 0.006023
75 0.005985
84 0.005985
89 0.005028
88 0.005027
86 0.003014
90 0.003989
106 0.00303
121 0.004986
133 0.002992
142 0.002982
149 0.001027
153 0.00104
157 0.001995
126 0.001995
62 0.001995
58 0.000994
78 0.002
91 0.003001
102 0.002966
102 0.003043
94 0.002968
97 0.003001
105 0.002992
123 0.003961
132 0.004988
145 0.006979
151 0.004996
157 0.004005
157 0.003984
94 0.003994
60 0.003989
55 0.004986
79 0.005
87 0.003958
97 0.002992
99 0.001954
96 0.002992
101 0.0
112 0.0
123 0.000998
140 0.000969
153 0.002026
159 0.002993
165 0.002964
168 0.001999
158 0.003008
79 0.005019
55 0.00504
65 0.005019
81 0.00603
84 0.005082
92 0.006983
94 0.007969
94 0.006972
99 0.007979
111 0.005992
126 0.007936
145 0.007969
152 0.007989
158 0.005984
164 0.00397
168 0.004991
167 0.004048
126 0.004999
61 0.003989
66 0.002991
80 0.002993
91 0.003993
97 0.003994
100 0.002953
95 0.001992
99 0.000997
113 0.001965
128 0.002993
142 0.001988
152 0.002032
158 0.001996
162 0.001995
168 0.001038
164 0.0
91 0.001039
58 0.000998
68 0.002009
87 0.001031
99 0.002993
106 0.002992
104 0.00396
101 0.004017
107 0.004988
125 0.005025
136 0.005984
152 0.005983
162 0.006006
166 0.006017
171 0.006936
176 0.005983
158 0.003996
76 0.003983
53 0.004987
68 0.003086
83 0.00305
90 0.002029
96 0.000982
97 0.0
97 0.0
106 0.0
119 0.0
139 0.003009
149 0.001996
161 0.00301
167 0.002998
173 0.002992
179 0.002962
157 0.002992
76 0.004024
59 0.005984
72 0.005984
89 0.006979
96 0.006981
103 0.004995
101 0.005994
98 0.005039
103 0.003958
122 0.003124
142 0.000996
150 0.001044
160 0.001995
167 0.002059
170 0.001983
176 0.001997
158 0.001996
79 0.001959
62 0.001995
76 0.002029
100 0.002029
113 0.001995
113 0.001996
103 0.002993
102 0.00303
114 0.004987
134 0.004987
146 0.005182
159 0.006983
166 0.006982
172 0.006979
176 0.007924
144 0.007979
75 0.007743
50 0.008011
58 0.007932
86 0.007968
95 0.006026
101 0.007972
100 0.005952
97 0.007023
104 0.005983
122 0.00599
133 0.004956
150 0.005994
158 0.005989
166 0.006003
172 0.006014
174 0.006025
105 0.004992
52 0.006996
50 0.004986
70 0.007023
85 0.004984
94 0.006166
96 0.005985
93 0.006017
93 0.005995
100 0.005982
120 0.005992
139 0.003977
148 0.00602
158 0.003986
162 0.005017
169 0.004008
132 0.003999
80 0.003989
48 0.003977
71 0.001001
86 0.002001
101 0.000985
104 0.002
95 0.0
91 0.001037
97 0.001996
117 0.002029
134 0.0
147 0.001054
156 0.001989
164 0.002993
164 0.002989
90 0.002992
40 0.004962
47 0.004976
74 0.006015
89 0.006981
96 0.006977
92 0.006972
88 0.006992
92 0.006982
113 0.00695
126 0.006951
140 0.006015
150 0.007023
157 0.004986
162 0.006019
146 0.004983
72 0.006023
29 0.006018
38 0.005978
60 0.005984
66 0.006019
76 0.006024
77 0.005012
77 0.00502
86 0.00301
105 0.001993
117 0.00208
136 0.001994
148 0.001995
152 0.000996
159 0.0
159 0.0
81 0.000965
34 0.000998
35 0.000998
60 0.000998
71 0.000998
77 0.004033
82 0.004987
81 0.00607
86 0.006025
99 0.006015
121 0.005973
132 0.005974
143 0.006029
148 0.006253
154 0.006963
159 0.007011
137 0.007012
53 0.002962
40 0.004002
55 0.002998
78 0.002992
93 0.003006
93 0.002991
85 0.001993
87 0.001993
103 0.001946
121 0.003028
138 0.002134
148 0.003019
157 0.002026
161 0.001995
161 0.002042
122 0.003034
43 0.00203
43 0.0
59 0.001976
77 0.0
87 0.000998
91 0.001995
88 0.001988
89 0.001805
103 0.001996
124 0.003949
137 0.004003
153 0.004045
162 0.004986
165 0.005988
172 0.005982
159 0.005976
104 0.005985
44 0.007007
44 0.007016
60 0.007016
76 0.006015
82 0.006017
90 0.005968
88 0.003998
91 0.005018
108 0.003962
129 0.003997
141 0.004024
156 0.001995
164 0.0
167 0.0
173 0.000998
174 0.001008
132 0.002994
51 0.004009
52 0.004021
71 0.004022
92 0.003984
101 0.003985
102 0.003989
94 0.003986
96 0.004987
109 0.004957
126 0.004997
143 0.005027
159 0.004998
164 0.004988
171 0.004983
177 0.005985
176 0.005999
92 0.006017
50 0.006019
49 0.005979
78 0.005986
88 0.007011
100 0.006972
100 0.00699
93 0.006977
100 0.007011
108 0.005978
130 0.004038
147 0.005018
160 0.004028
168 0.004985
174 0.004032
178 0.002991
177 0.002987
88 0.002037
46 0.0
42 0.00102
70 0.002993
83 0.00399
96 0.004048
99 0.003988
95 0.004986
97 0.005984
113 0.004986
126 0.004962
147 0.003973
163 0.003992
170 0.003989
177 0.003215
182 0.002009
177 0.0
104 0.0
49 0.001004
49 0.001989
76 0.001996
101 0.002952
110 0.003977
108 0.003986
100 0.003954
97 0.004987
115 0.006974
134 0.00598
147 0.005949
163 0.003985
172 0.002993
176 0.001999
159 0.002981
100 0.001997
39 0.002002
49 0.001966
77 0.002009
98 0.002027
112 0.001997
109 0.001985
99 0.002037
100 0.002036
118 0.001027
141 0.0
154 0.000992
169 0.0
174 0.001027
182 0.00098
163 0.000997
99 0.000998
29 0.0
46 0.0
65 0.000997
85 0.000998
94 0.002045
96 0.000997
92 0.000998
96 0.002043
114 0.002023
137 0.001995
150 0.001995
166 0.001995
173 0.003168
180 0.003989
183 0.003998
123 0.003977
48 0.00402
36 0.00402
55 0.00403
85 0.003967
95 0.003976
102 0.004022
91 0.00499
90 0.004994
105 0.004985
119 0.004995
142 0.004984
159 0.004987
166 0.004988
173 0.006953
169 0.00698
119 0.006979
39 0.006979
35 0.006987
74 0.006984
97 0.007024
110 0.006977
111 0.00793
98 0.007007
95 0.007984
113 0.007976
128 0.007978
146 0.006995
163 0.003988
169 0.003989
175 0.003968
92 0.002997
38 0.001955
25 0.001998
45 0.001991
74 0.001994
88 0.002992
92 0.001994
86 0.002992
85 0.002993
93 0.003026
116 0.002988
130 0.002993
149 0.002033
161 0.0
167 0.0
163 0.000994
61 0.003989
20 0.003812
26 0.004034
60 0.004024
72 0.00399
86 0.003989
85 0.004018
79 0.004039
87 0.005981
99 0.005979
123 0.00602
143 0.005797
152 0.005977
162 0.006978
166 0.006965
170 0.005984
119 0.005979
32 0.004021
24 0.002992
56 0.002992
75 0.002992
95 0.002993
95 0.000997
87 0.002992
84 0.000965
102 0.000957
117 0.000998
136 0.0
147 0.0
160 0.0
168 0.002031
155 0.002048
57 0.001995
23 0.003018
39 0.002993
73 0.003004
93 0.002979
98 0.002963
89 0.003021
85 0.002992
97 0.004002
115 0.003992
135 0.003962
150 0.00399
161 0.003908
169 0.00399
136 0.003992
68 0.00402
14 0.003984
38 0.005019
58 0.006021
75 0.006025
84 0.006015
84 0.005987
82 0.006014
89 0.006015
110 0.006005
129 0.007979
142 0.005981
157 0.007972
163 0.006011
170 0.00798
139 0.007017
53 0.007976
18 0.008019
43 0.004
62 0.004022
79 0.001997
89 0.002
86 0.0
85 0.0
95 0.0
109 0.003
133 0.003992
152 0.004022
160 0.004026
168 0.00401
172 0.003959
178 0.004036
115 0.004004
56 0.006015
33 0.006979
60 0.005984
85 0.006014
99 0.006984
102 0.006978
91 0.007016
87 0.006979
96 0.006988
121 0.006985
140 0.006969
151 0.007018
164 0.004988
169 0.007012
175 0.003994
104 0.002003
38 0.001994
42 0.0
70 0.001001
97 0.0
109 0.0
111 0.0
105 0.0
105 0.0
123 0.0
138 0.001014
160 0.002993
172 0.003961
180 0.00502
187 0.004984
150 0.006029
87 0.006018
42 0.007976
61 0.003998
80 0.005978
97 0.004
106 0.004996
109 0.003991
108 0.004006
113 0.003996
133 0.003989
156 0.001996
168 0.001995
182 0.001994
190 0.000998
196 0.0
157 0.000997
84 0.0
62 0.000997
87 0.001016
104 0.001995
121 0.0
127 0.000998
123 0.001022
118 0.001007
124 0.001023
143 0.002958
164 0.00303
175 0.003005
187 0.002993
195 0.002974
200 0.00295
153 0.003847
100 0.003992
77 0.003994
104 0.006015
120 0.006018
137 0.005989
137 0.005987
128 0.006007
127 0.006017
138 0.006016
153 0.006017
173 0.006024
183 0.006983
193 0.007972
198 0.005998
201 0.00702
184 0.005984
130 0.006982
72 0.004939
86 0.00508
103 0.004018
116 0.001994
124 0.002004
121 0.001988
118 0.0
126 0.001
137 0.001995
157 0.004025
174 0.004028
181 0.004016
190 0.003983
195 0.00399
195 0.003989
139 0.00399
79 0.003992
73 0.006034
100 0.007015
112 0.007011
125 0.00797
125 0.005991
119 0.005983
117 0.003022
131 0.003988
143 0.002992
161 0.003001
174 0.002997
179 0.002999
185 0.00299
186 0.001996
117 0.0
70 0.001996
73 0.0
96 0.0
117 0.0
127 0.0
125 0.001968
117 0.002993
120 0.003047
133 0.002993
148 0.002985
163 0.003025
177 0.003928
183 0.003946
190 0.003991
139 0.005947
85 0.007914
58 0.006981
77 0.00594
93 0.004943
106 0.004999
115 0.005981
113 0.002992
109 0.00402
119 0.003989
130 0.003026
150 0.001992
161 0.00199
175 0.002039
183 0.0
188 0.001998
136 0.000955
60 0.0
56 0.0
77 0.0
94 0.0
109 0.000999
115 0.002001
111 0.002025
107 0.002999
121 0.004001
134 0.00399
154 0.005984
167 0.005984
174 0.005996
182 0.005984
185 0.007952
133 0.005953
69 0.007015
60 0.004965
83 0.005984
109 0.006015
120 0.004989
121 0.004023
109 0.001997
109 0.00299
124 0.000968
146 0.000996
158 0.0
172 0.001031
178 0.0
183 0.0
130 0.0
54 0.001995
50 0.002992
78 0.004015
102 0.006029
113 0.006986
115 0.00697
109 0.006982
107 0.004986
117 0.007023
133 0.004996
150 0.004986
167 0.003993
175 0.00299
182 0.002026
177 0.0
124 0.001959
46 0.0
52 0.0
71 0.0
92 0.0
104 0.0
107 0.0
101 0.0
101 0.0
114 0.0
136 0.000996
148 0.0
165 0.0
175 0.002991
180 0.003989
172 0.003958
117 0.003863
47 0.004025
53 0.004046
73 0.004018
101 0.00399
118 0.005959
116 0.005954
104 0.00697
106 0.005018
115 0.004986
138 0.004944
151 0.004962
168 0.005117
178 0.004961
182 0.004991
162 0.003001
84 0.002042
47 0.001001
61 0.0
96 0.0
110 0.0
124 0.0
115 0.0
107 0.000986
111 0.002027
131 0.004024
145 0.003991
165 0.003991
173 0.00399
183 0.00399
182 0.005979
130 0.00595
44 0.005987
46 0.005973
66 0.006974
89 0.00598
106 0.005985
109 0.00599
101 0.005981
100 0.005985
113 0.005073
131 0.007028
148 0.005018
163 0.006011
173 0.004986
180 0.006981
186 0.006026
171 0.005021
68 0.004072
34 0.003005
49 0.002992
82 0.000988
98 0.0
102 0.0
96 0.001003
90 0.000885
96 0.001024
117 0.000998
132 0.000998
152 0.001996
165 0.001966
170 0.002022
177 0.00297
138 0.004023
77 0.003945
39 0.004036
52 0.004021
88 0.003987
107 0.00403
118 0.005022
110 0.005984
100 0.005988
106 0.007034
127 0.007027
141 0.006926
162 0.007984
172 0.005991
177 0.007972
182 0.004985
151 0.002988
86 0.002003
34 0.001958
50 0.003032
79 0.001996
96 0.003019
109 0.002034
105 0.001996
96 0.001964
100 0.000987
120 0.002038
138 0.000998
155 0.000998
167 0.002993
176 0.002992
179 0.003038
184 0.002994
145 0.002992
78 0.002993
29 0.004026
40 0.003991
73 0.006093
92 0.005972
100 0.005981
97 0.006973
90 0.005987
95 0.005032
114 0.00598
138 0.007977
150 0.005984
163 0.007008
171 0.004994
176 0.005977
181 0.006023
177 0.005986
84 0.006015
43 0.006016
46 0.006017
83 0.004985
97 0.006015
113 0.003979
102 0.00399
95 0.003986
100 0.004001
113 0.001994
138 0.002
158 0.002953
167 0.002981
175 0.002004
179 0.001996
181 0.000991
103 0.000999
36 0.000999
39 0.001991
75 0.001996
97 0.003004
113 0.002991
111 0.005022
97 0.004976
98 0.004983
117 0.005017
132 0.005998
150 0.007016
169 0.003977
178 0.001986
182 0.002964
186 0.002035
184 0.001017
89 0.001002
27 0.0
29 0.0
62 0.001995
86 0.00299
97 0.004985
96 0.006982
88 0.007032
90 0.007018
100 0.007015
124 0.007026
138 0.007014
157 0.006018
168 0.002995
173 0.000989
177 0.000997
174 0.001997
117 0.001999
31 0.00199
37 0.001998
59 0.000987
86 0.001027
97 0.000995
98 0.0
89 0.002026
89 0.0
102 0.000997
127 0.001013
141 0.000995
159 0.001995
167 0.003002
172 0.004021
176 0.003994
177 0.005058
129 0.00598
42 0.006005
34 0.006013
66 0.005985
99 0.006981
108 0.007978
115 0.00699
98 0.005951
95 0.006003
109 0.006026
124 0.005988
150 0.004977
168 0.00299
176 0.002002
180 0.000971
182 0.002028
121 0.0
44 0.001029
32 0.002034
53 0.001992
87 0.001002
103 0.000999
107 0.002006
96 0.001961
93 0.004047
102 0.003957
125 0.003998
140 0.003977
160 0.003851
172 0.00399
176 0.003987
181 0.004999
157 0.004972
88 0.004978
21 0.004976
27 0.005983
55 0.00698
82 0.006982
92 0.006979
95 0.006983
87 0.007979
88 0.004993
102 0.005983
127 0.006026
141 0.005984
161 0.00502
169 0.005018
175 0.004987
179 0.00301
183 0.002043
145 0.0
44 0.0
27 0.0
55 0.000991
86 0.0
99 0.000999
108 0.000998
99 0.001033
85 0.002002
96 0.001989
111 0.002989
138 0.005006
154 0.00495
164 0.004987
170 0.004986
176 0.004984
173 0.005988
81 0.006988
29 0.005988
31 0.007022
69 0.003991
99 0.004011
111 0.00399
106 0.00399
96 0.002993
95 0.003989
115 0.003022
131 0.003027
154 0.002988
165 0.002989
176 0.001993
180 0.001998
185 0.0
140 0.0
35 0.001995
19 0.001998
46 0.001996
73 0.002958
87 0.003953
95 0.004002
86 0.004009
82 0.003991
93 0.004029
107 0.003912
133 0.004984
154 0.007005
162 0.006996
170 0.006872
174 0.006949
176 0.006981
128 0.006977
60 0.006977
17 0.006849
45 0.004985
68 0.003989
87 0.00499
94 0.006973
86 0.00499
81 0.005017
94 0.004989
109 0.00499
135 0.003026
155 0.0
162 0.002027
168 0.0
171 0.001996
177 0.0
139 0.000996
73 0.0
27 0.000866
57 0.003957
80 0.004048
103 0.00499
105 0.006013
95 0.006388
87 0.006981
101 0.00698
116 0.006977
138 0.007979
157 0.00595
164 0.005984
171 0.005983
173 0.005984
160 0.005983
56 0.003987
23 0.005996
37 0.004004
74 0.002049
87 0.001997
100 0.0
91 0.0
88 0.001006
95 0.003025
118 0.004986
133 0.004986
155 0.00499
168 0.004992
173 0.005997
178 0.00603
181 0.006018
124 0.00499
39 0.006888
17 0.005979
40 0.007983
72 0.007975
81 0.007975
92 0.007982
88 0.004987
85 0.00499
96 0.001985
121 0.001961
137 0.001958
159 0.0
171 0.0
175 0.0
179 0.002029
184 0.002004
148 0.001993
47 0.004033
29 0.004021
56 0.004001
92 0.003991
104 0.003996
110 0.004532
98 0.004454
92 0.004984
103 0.004986
125 0.004988
146 0.004984
166 0.004957
174 0.00497
181 0.004996
186 0.00687
158 0.007004
70 0.005952
34 0.007012
47 0.005014
88 0.004986
103 0.004986
118 0.005937
105 0.004972
98 0.004982
107 0.003983
121 0.003977
143 0.006007
166 0.00502
176 0.003988
183 0.004023
187 0.001993
189 0.004017
109 0.002
47 0.003991
25 0.001976
62 0.001994
80 0.0
96 0.0
97 0.0
92 0.0
90 0.0
98 0.0
121 0.0
146 0.0
158 0.0
171 0.000997
176 0.003031
180 0.002988
166 0.002991
76 0.003956
20 0.003998
28 0.006014
64 0.007975
73 0.005979
88 0.00402
89 0.002005
85 0.00299
87 0.0
107 0.0
123 0.001038
147 0.0
160 0.0
166 0.001003
172 0.003988
178 0.003935
173 0.005019
73 0.005997
26 0.005979
41 0.006006
73 0.005984
93 0.007022
105 0.003988
101 0.005994
88 0.004986
90 0.005019
111 0.004971
127 0.00499
151 0.004987
165 0.003003
170 0.004993
176 0.002992
172 0.00499
76 0.003077
26 0.002997
38 0.002989
77 0.002998
92 0.003
109 0.001995
100 0.003043
93 0.002002
101 0.001994
120 0.001996
141 0.0
159 0.0
172 0.0
177 0.0
182 0.0
170 0.0
63 0.0
19 0.0
34 0.0
65 0.002991
84 0.004987
93 0.005982
94 0.007011
89 0.003987
100 0.003069
113 0.002985
140 0.002998
154 0.002004
170 0.0
177 0.002003
183 0.0
185 0.002
95 0.00195
38 0.001972
28 0.001998
50 0.001995
80 0.002026
94 0.0
98 0.001985
92 0.000997
93 0.00094
103 0.001017
128 0.00203
152 0.002943
164 0.003988
174 0.005022
181 0.005991
185 0.005984
127 0.00496
62 0.004988
32 0.005957
59 0.005027
81 0.005019
104 0.002985
113 0.004023
103 0.001997
96 0.002992
108 0.002995
123 0.001952
150 0.0
165 0.0
175 0.0
181 0.000896
185 0.002012
161 0.003001
55 0.003036
28 0.003013
51 0.004019
85 0.00499
97 0.005002
108 0.00698
101 0.006978
97 0.006984
111 0.006976
136 0.006875
146 0.004946
166 0.00399
176 0.006982
180 0.003988
185 0.00399
187 0.003024
142 0.002993
39 0.002951
24 0.003028
53 0.002993
82 0.0
91 0.001994
101 0.001994
97 0.0
96 0.0
108 0.0
123 0.0
148 0.000988
168 0.0
176 0.001027
184 0.000996
190 0.001996
186 0.002991
86 0.005041
37 0.004024
47 0.005033
81 0.005003
104 0.004989
118 0.005022
113 0.006971
104 0.00698
105 0.007014
127 0.006956
143 0.007014
161 0.006018
171 0.007977
182 0.004984
188 0.003992
184 0.004107
86 0.003986
32 0.001991
44 0.001994
86 0.001997
108 0.004031
123 0.001992
118 0.003981
106 0.002992
109 0.00399
131 0.003995
147 0.003006
171 0.001006
184 0.000997
192 0.001003
196 0.000996
142 0.000998
69 0.000998
25 0.002028
41 0.002035
81 0.002988
101 0.002993
109 0.003027
105 0.00299
100 0.003989
108 0.00498
131 0.005989
152 0.006991
166 0.005982
181 0.005985
187 0.005953
194 0.006036
158 0.007975
64 0.004933
25 0.007011
54 0.005983
80 0.003998
105 0.002993
115 0.0
109 0.001996
101 0.000979
113 0.0
123 0.000998
151 0.002991
173 0.003991
182 0.004988
190 0.00602
197 0.005952
174 0.005951
63 0.005986
35 0.00599
58 0.005934
101 0.005989
118 0.006018
131 0.005979
117 0.007983
107 0.004997
109 0.006981
127 0.004989
150 0.007013
173 0.007016
184 0.006981
194 0.003993
182 0.003996
113 0.00295
30 0.00296
32 0.002962
73 0.003956
108 0.002005
122 0.002985
120 0.00296
106 0.003979
106 0.001992
122 0.003989
143 0.001996
164 0.003989
182 0.003994
189 0.003953
197 0.003037
174 0.0
98 0.001995
21 0.000952
25 0.00203
59 0.000997
93 0.002028
106 0.002993
109 0.003608
98 0.004934
98 0.004988
116 0.005983
137 0.005985
153 0.006982
175 0.00602
187 0.006026
191 0.00502
196 0.00199
198 0.001987
119 0.0
36 0.002033
29 0.002004
54 0.001962
91 0.001996
111 0.000997
111 0.003026
98 0.000946
97 0.002025
112 0.000986
133 0.0
149 0.001996
172 0.0
182 0.0
190 0.0
193 0.001995
195 0.001996
202 0.001995
169 0.001995
91 0.001899
25 0.001973
34 0.001967
77 0.002961
106 0.002969
116 0.004001
104 0.004954
91 0.004962
95 0.004989
114 0.004959
136 0.004948
156 0.004987
173 0.004982
178 0.004987
182 0.004955
184 0.005984
190 0.005979
120 0.005984
58 0.005983
33 0.005955
71 0.005981
87 0.004959
117 0.004023
124 0.005987
106 0.001994
94 0.003986
106 0.002992
121 0.001995
150 0.001993
170 0.0
178 0.001964
183 0.0
186 0.001995
176 0.000966
65 0.0
25 0.001009
35 0.0
70 0.001993
90 0.00299
112 0.003991
105 0.003986
95 0.004
95 0.004957
107 0.004958
134 0.003991
159 0.004988
170 0.004995
180 0.004988
183 0.005984
187 0.005983
164 0.006981
52 0.005984
20 0.004987
39 0.004962
63 0.004954
92 0.003988
106 0.001995
101 0.002961
91 0.001994
101 0.000963
115 0.00096
142 0.0
160 0.0
169 0.0
178 0.0
181 0.0
186 0.0
116 0.0
56 0.000999
33 0.000999
71 0.001961
93 0.002829
114 0.003038
115 0.002961
98 0.002991
93 0.002966
105 0.002947
126 0.003983
152 0.003995
163 0.00399
174 0.004987
178 0.004985
183 0.006981
138 0.003991
45 0.001996
33 0.001965
65 0.0
95 0.001977
109 0.0
118 0.0
103 0.000997
98 0.001999
111 0.002992
131 0.004957
151 0.004986
166 0.004987
178 0.006981
181 0.006981
185 0.007978
187 0.005984
125 0.007966
47 0.005984
31 0.007978
57 0.005988
89 0.005984
98 0.004988
105 0.006025
99 0.005985
94 0.004986
109 0.004988
123 0.005023
148 0.00499
163 0.004986
173 0.003023
179 0.004986
182 0.002956
184 0.003948
193 0.002991
177 0.002991
69 0.0
31 0.000984
48 0.001997
78 0.001994
99 0.002038
107 0.001955
102 0.001969
96 0.001975
101 0.002015
123 0.003989
139 0.00399
162 0.00399
177 0.003991
181 0.005093
184 0.005982
188 0.005951
193 0.004987
190 0.002953
110 0.004987
50 0.002992
50 0.004986
89 0.004994
109 0.004986
128 0.001992
121 0.0
106 0.0
104 0.000994
123 0.001961
140 0.001963
164 0.004989
181 0.005001
186 0.004984
189 0.004984
194 0.005984
193 0.006001
108 0.004989
46 0.005946
44 0.003996
75 0.005959
104 0.00399
123 0.005979
124 0.00402
113 0.003998
106 0.004026
123 0.002991
139 0.00399
164 0.000998
177 0.002997
190 0.0
195 0.0
198 0.0
163 0.0
53 0.000996
27 0.000994
50 0.002962
87 0.002993
98 0.002969
109 0.002987
99 0.003995
94 0.004017
104 0.00399
118 0.005015
143 0.004981
161 0.004984
173 0.004986
179 0.006981
185 0.006982
178 0.007978
97 0.006982
26 0.001995
30 0.00399
70 0.001995
97 0.002968
107 0.001995
102 0.001995
92 0.001994
92 0.001997
113 0.001995
128 0.001996
150 0.0
163 0.001002
168 0.002992
174 0.003958
121 0.004994
57 0.005018
23 0.004983
50 0.005032
81 0.005029
100 0.005018
110 0.005247
99 0.006782
90 0.006977
97 0.00699
121 0.006982
142 0.005984
156 0.007975
170 0.005993
176 0.007931
180 0.004008
117 0.002995
50 0.003991
18 0.003982
53 0.002994
73 0.003997
90 0.003987
98 0.003989
94 0.0
92 0.002037
102 0.0
121 0.0
142 0.0
159 0.0
171 0.0
177 0.002011
180 0.002033
184 0.001995
98 0.001994
40 0.001996
27 0.002994
66 0.004986
80 0.006012
90 0.006978
95 0.006982
91 0.005007
91 0.004998
100 0.005007
125 0.003956
145 0.004026
163 0.002989
169 0.001996
175 0.0
178 0.000958
183 0.001995
146 0.003958
46 0.004032
31 0.004042
69 0.0
89 0.004986
106 0.006981
113 0.0
108 0.0
96 0.001995
110 0.004986
126 0.003989
152 0.004987
172 0.003989
179 0.002993
184 0.001994
186 0.002987
191 0.0
161 0.002062
55 0.002042
32 0.0
58 0.0
87 0.001965
101 0.002962
110 0.002992
103 0.005985
100 0.006987
106 0.007011
129 0.004976
145 0.005984
168 0.002993
182 0.003049
187 0.002999
190 0.002958
191 0.003005
198 0.002975
162 0.002992
89 0.001995
31 0.002011
49 0.00298
80 0.0
98 0.006982
109 0.000998
107 0.002992
99 0.0
105 0.002993
123 0.00296
143 0.004943
166 0.004985
177 0.005977
186 0.004956
189 0.005983
191 0.003992
198 0.002993
185 0.002033
117 0.001986
39 0.001995
40 0.001979
80 0.002963
104 0.002005
119 0.0
118 0.002023
101 0.003053
100 0.001004
117 0.002001
137 0.001966
157 0.001991
172 0.002819
179 0.005942
181 0.00699
183 0.006966
187 0.002988
105 0.002014
50 0.0
38 0.000965
63 0.001032
101 0.000956
119 0.0
115 0.002989
102 0.004034
96 0.005981
118 0.005991
134 0.00596
159 0.005984
171 0.005952
180 0.006017
186 0.006975
188 0.004987
190 0.007015
110 0.007017
49 0.007017
30 0.006982
52 0.006988
91 0.006983
111 0.004987
115 0.006983
101 0.004989
95 0.007004
108 0.003989
136 0.003989
152 0.002993
169 0.0
179 0.0
181 0.0
183 0.000999
183 0.00199
139 0.0
32 0.0
21 0.001966
45 0.003006
80 0.002994
94 0.001993
98 0.002028
90 0.00199
86 0.004003
98 0.005019
124 0.004991
142 0.004886
166 0.005986
179 0.005985
184 0.007979
188 0.002991
192 0.00399
187 0.002991
78 0.002975
26 0.001994
38 0.000966
70 0.001003
95 0.000999
105 0.002066
102 0.001996
92 0.000994
94 0.000998
112 0.002029
134 0.001988
154 0.000998
171 0.00103
178 0.000999
184 0.001996
187 0.00204
135 0.003958
47 0.003991
38 0.004038
71 0.005952
103 0.005964
115 0.005985
121 0.004985
108 0.004901
105 0.004945
118 0.001997
139 0.00399
159 0.001981
175 0.002028
186 0.002975
190 0.002031
192 0.002038
106 0.000995
56 0.001994
44 0.0
78 0.003024
95 0.002982
110 0.002995
115 0.003003
108 0.002992
107 0.002943
116 0.002976
139 0.002896
162 0.00396
172 0.004953
182 0.006016
187 0.007
190 0.005955
155 0.00599
91 0.004986
39 0.004996
56 0.007017
81 0.004987
91 0.007978
102 0.006981
101 0.005034
98 0.004985
108 0.001995
120 0.001994
143 0.001002
155 0.00309
166 0.0
175 0.0
176 0.0
181 0.001948
171 0.003042
115 0.002988
43 0.003971
55 0.003985
75 0.003958
91 0.005025
102 0.004985
101 0.004984
94 0.003997
97 0.007132
111 0.004021
130 0.005984
150 0.006017
159 0.00599
165 0.003981
168 0.006019
174 0.003003
163 0.002992
107 0.000997
48 0.000998
55 0.000988
76 0.000992
92 0.0
105 0.0
103 0.0
94 0.0
96 0.0
113 0.0
135 0.0
147 0.0
162 0.0
165 0.0
170 0.0
174 0.001041
160 0.002955
83 0.003029
33 0.002958
43 0.002989
75 0.003038
84 0.003011
95 0.002998
94 0.005984
90 0.005987
95 0.004982
114 0.003961
137 0.003001
150 0.002012
164 0.002993
169 0.002992
173 0.000997
177 0.0
156 0.000961
96 0.000997
37 0.001045
43 0.001961
75 0.001987
88 0.003031
98 0.002957
98 0.002994
90 0.001997
92 0.001996
111 0.002993
136 0.005951
148 0.007022
163 0.006972
167 0.006982
170 0.00698
174 0.006968
151 0.006979
76 0.005969
43 0.004984
58 0.004963
91 0.002952
106 0.004987
115 0.002992
108 0.003989
99 0.001998
105 0.004022
127 0.004021
142 0.00403
162 0.003026
173 0.0
176 0.003022
182 0.0
158 0.0
96 0.001954
36 0.00299
55 0.00299
76 0.002991
93 0.003998
104 0.006523
101 0.006018
94 0.005988
99 0.005902
119 0.005991
138 0.005957
154 0.00599
165 0.005981
171 0.00598
174 0.005985
178 0.005979
170 0.006015
75 0.006982
37 0.006982
43 0.006979
75 0.006981
84 0.007013
94 0.006981
95 0.005954
92 0.004989
97 0.004027
108 0.004119
131 0.003989
151 0.003999
161 0.003005
170 0.002996
173 0.00404
177 0.00298
182 0.004024
120 0.003027
62 0.00299
38 0.003028
54 0.002026
82 0.003026
94 0.000999
102 0.001013
96 0.000999
93 0.001999
100 0.003045
123 0.002986
147 0.00305
157 0.00303
167 0.002845
170 0.002989
175 0.004025
169 0.005004
115 0.004954
53 0.00502
53 0.005027
74 0.004982
102 0.004976
116 0.007012
117 0.004985
106 0.00702
107 0.005021
117 0.005033
142 0.004982
164 0.0
174 0.002969
182 0.002992
185 0.003057
188 0.0
125 0.000998
67 0.000998
43 0.000999
76 0.0
92 0.0
107 0.002995
110 0.003991
106 0.003038
105 0.004977
123 0.005983
138 0.006017
157 0.005899
170 0.005835
178 0.005984
183 0.006012
186 0.006026
186 0.005983
144 0.005979
53 0.007034
44 0.006966
70 0.006986
91 0.006938
100 0.006988
110 0.005985
106 0.004023
103 0.003988
115 0.003958
139 0.003949
153 0.002992
172 0.003989
179 0.005008
183 0.001998
187 0.004008
191 0.0
145 0.00399
58 0.002944
48 0.002992
79 0.003978
107 0.0
117 0.003033
122 0.000966
110 0.000997
106 0.000997
118 0.000998
133 0.000997
157 0.001007
171 0.001995
176 0.002992
182 0.003996
187 0.005984
157 0.004987
94 0.00399
45 0.002956
56 0.002958
93 0.001976
110 0.003996
120 0.001996
114 0.004023
104 0.004021
108 0.00399
129 0.004
144 0.004024
164 0.002019
176 0.000986
180 0.002024
183 0.0
186 0.00204
170 0.003991
107 0.004986
37 0.004991
41 0.005002
73 0.004982
88 0.005973
93 0.005992
99 0.004021
94 0.004997
97 0.003943
116 0.002974
135 0.005986
151 0.001995
164 0.003034
171 0.002991
173 0.001997
177 0.000997
182 0.0
146 0.001014
65 0.000998
37 0.000998
55 0.00201
85 0.003963
99 0.004733
104 0.005019
98 0.00499
96 0.00499
109 0.004981
134 0.006031
148 0.006976
161 0.006932
169 0.007015
172 0.006983
176 0.007016
179 0.005985
130 0.00698
48 0.00698
47 0.007972
76 0.006981
102 0.003945
112 0.006988
115 0.003989
110 0.005985
110 0.003093
128 0.004045
143 0.003944
163 0.002962
172 0.002988
181 0.00296
185 0.002997
188 0.002992
168 0.00201
83 0.003991
38 0.003002
50 0.003985
78 0.002991
91 0.004034
104 0.002998
106 0.002997
102 0.002984
111 0.0
125 0.003027
144 0.000955
166 0.000998
175 0.001012
183 0.001994
187 0.00399
191 0.00399
175 0.003987
112 0.004986
44 0.004987
63 0.00499
86 0.005018
104 0.006018
118 0.004994
115 0.003987
104 0.003957
108 0.005984
125 0.00299
146 0.005985
163 0.003037
175 0.004987
182 0.003989
184 0.003991
186 0.003025
129 0.001005
57 0.001005
44 0.000998
80 0.000875
101 0.000997
123 0.002992
121 0.003027
112 0.00399
110 0.003988
130 0.004035
146 0.004006
169 0.003991
179 0.003997
188 0.003984
194 0.004988
182 0.005019
73 0.004975
34 0.004979
45 0.004989
76 0.005952
91 0.005984
107 0.005984
107 0.004952
103 0.005983
104 0.002029
122 0.002992
138 0.001997
163 0.002996
178 0.002985
183 0.0
189 0.0
188 0.003024
112 0.0
39 0.002995
32 0.0
62 0.002997
92 0.002969
103 0.0
109 0.0
102 0.000963
98 0.001963
111 0.003023
138 0.004988
153 0.005982
172 0.006981
181 0.005981
187 0.006994
183 0.005009
130 0.006124
39 0.003995
43 0.002023
69 0.002999
104 0.00203
124 0.001938
118 0.0
104 0.0
103 0.000966
115 0.001995
142 0.003991
166 0.006591
178 0.006982
185 0.006979
183 0.006986
127 0.005982
28 0.006989
29 0.006977
54 0.006979
82 0.007979
103 0.003948
106 0.007027
96 0.004002
93 0.005975
106 0.003989
132 0.003991
147 0.003996
166 0.002988
177 0.0
181 0.0
160 0.000991
45 0.000999
12 0.000954
33 0.003011
71 0.004955
83 0.005954
97 0.00698
92 0.007975
87 0.006025
91 0.006981
113 0.004983
128 0.004022
152 0.003986
167 0.002022
171 0.004024
177 0.002002
114 0.003985
46 0.00199
15 0.0
46 0.002997
78 0.0
96 0.003033
105 0.0
94 0.003993
86 0.002006
94 0.001994
120 0.002998
142 0.003003
159 0.003036
169 0.003026
175 0.003958
174 0.003961
78 0.007013
16 0.006968
20 0.007981
61 0.005987
83 0.007979
105 0.004985
103 0.004989
95 0.003993
96 0.002986
119 0.00299
137 0.001976
161 0.000965
174 0.002992
181 0.000967
186 0.002992
161 0.0
87 0.000999
15 0.001993
29 0.003989
62 0.00599
83 0.007014
99 0.006981
99 0.006995
93 0.007015
96 0.007018
116 0.006984
138 0.005212
153 0.006978
172 0.003989
182 0.003992
187 0.00499
190 0.003987
149 0.004132
39 0.003002
29 0.003989
54 0.003985
92 0.003987
103 0.002995
109 0.003027
98 0.005976
94 0.002991
106 0.004986
134 0.002991
150 0.002992
171 0.002032
181 0.0
185 0.001992
178 0.0
92 0.0
40 0.000998
38 0.002992
81 0.004021
101 0.004023
121 0.006005
110 0.005982
101 0.005984
106 0.005977
120 0.005987
148 0.005983
168 0.005984
179 0.005982
188 0.005928
192 0.00595
153 0.00797
56 0.006974
21 0.005018
40 0.003985
81 0.002996
93 0.003965
106 0.000984
98 0.001013
94 0.001
106 0.0
133 0.0
149 0.0
169 0.0
178 0.001002
182 0.002027
187 0.002961
116 0.00499
47 0.004988
16 0.006079
40 0.007012
71 0.004985
87 0.006986
99 0.005985
95 0.004986
89 0.004993
95 0.004992
119 0.004987
146 0.0
159 0.003995
171 0.000999
177 0.0
180 0.000997
166 0.002001
59 0.002037
28 0.002027
49 0.002005
89 0.003064
102 0.00381
114 0.003987
107 0.004001
96 0.00399
112 0.00385
128 0.003992
157 0.00399
172 0.005984
180 0.005985
186 0.006002
183 0.006993
152 0.006973
46 0.007015
29 0.006978
61 0.006978
95 0.002997
113 0.001012
115 0.0
104 0.0
102 0.00096
120 0.0
147 0.0
162 0.0
176 0.0
185 0.0
189 0.0
192 0.002047
165 0.000966
52 0.002021
28 0.003954
50 0.003958
85 0.004015
98 0.00399
107 0.003989
103 0.004037
101 0.003952
112 0.004025
137 0.005001
158 0.004985
171 0.003989
185 0.003014
190 0.0
193 0.0
197 0.000967
143 0.003036
54 0.001017
31 0.002
67 0.001995
88 0.002057
105 0.001995
112 0.002014
104 0.004022
101 0.003954
112 0.003994
133 0.004992
160 0.004024
173 0.004019
185 0.004985
188 0.004989
192 0.005013
174 0.00498
105 0.004986
37 0.006951
53 0.005984
89 0.005984
112 0.006015
129 0.003041
124 0.004956
109 0.00402
111 0.004031
134 0.004126
157 0.006947
177 0.003955
190 0.007013
197 0.004984
199 0.003986
199 0.003988
152 0.003989
46 0.003991
41 0.002983
67 0.003027
102 0.0
119 0.0
120 0.0
109 0.0
108 0.001995
118 0.002993
145 0.00399
171 0.003989
183 0.003961
194 0.004957
197 0.004956
200 0.00498
177 0.004019
103 0.004945
27 0.004985
39 0.006014
65 0.005029
95 0.006978
105 0.005988
112 0.006981
103 0.006976
104 0.006971
123 0.006988
145 0.005018
162 0.005984
182 0.002988
192 0.002982
195 0.001987
200 0.0
161 0.0
87 0.001984
34 0.0
39 0.0
82 0.001989
113 0.002015
125 0.002
119 0.003024
106 0.003842
107 0.003023
124 0.003038
153 0.006021
168 0.004988
184 0.004985
191 0.006016
194 0.006983
187 0.005984
103 0.006985
38 0.005997
46 0.006986
74 0.006018
110 0.005985
125 0.004987
123 0.005982
105 0.00595
105 0.00598
125 0.005994
148 0.00697
168 0.002946
181 0.005984
189 0.003987
194 0.005021
131 0.002991
57 0.00497
16 0.00406
53 0.002031
76 0.002965
97 0.0
102 0.0
98 0.0
90 0.001995
104 0.001994
120 0.002021
147 0.001979
160 0.001984
173 0.002027
180 0.002987
177 0.001975
74 0.001995
11 0.00396
22 0.004949
62 0.005985
79 0.005983
93 0.005985
93 0.007935
88 0.004987
88 0.007978
107 0.007015
122 0.006033
148 0.004025
164 0.002988
170 0.00403
177 0.0
134 0.000999
65 0.0
19 0.0
53 0.0
77 0.000967
101 0.001007
108 0.0
96 0.0
89 0.003957
99 0.0
120 0.0
148 0.001975
160 0.001031
171 0.002992
178 0.002959
177 0.002992
85 0.004036
32 0.004002
28 0.003984
71 0.004986
88 0.004988
106 0.005994
106 0.005979
98 0.005987
97 0.005983
119 0.003958
136 0.003958
160 0.002991
172 0.004023
179 0.0
184 0.003033
154 0.00096
59 0.00398
15 0.002029
33 0.0
72 0.0
87 0.0
99 0.0
97 0.0
91 0.000992
98 0.002032
121 0.002999
139 0.001995
162 0.003984
177 0.003989
183 0.00399
190 0.00598
163 0.00498
91 0.00399
23 0.002995
48 0.002961
72 0.003997
94 0.002991
106 0.005017
104 0.003011
98 0.005056
104 0.002991
122 0.004939
150 0.005043
163 0.005032
178 0.005007
185 0.007019
189 0.002992
179 0.0
116 0.002992
36 0.000954
52 0.0
79 0.0
110 0.000944
124 0.0
120 0.0
104 0.0
110 0.001996
124 0.002993
153 0.00399
176 0.005018
184 0.004948
191 0.00619
195 0.00798
170 0.003988
76 0.005978
28 0.006019
44 0.005986
87 0.006102
103 0.003993
121 0.003993
112 0.003004
106 0.002048
114 0.0
139 0.0
156 0.0
179 0.0
189 0.001047
194 0.0
200 0.000993
136 0.002994
63 0.001988
24 0.002992
43 0.002995
86 0.003988
105 0.00303
117 0.004025
113 0.004005
105 0.003027
111 0.002992
134 0.003029
151 0.004032
176 0.005996
192 0.006016
196 0.005986
202 0.005984
179 0.004983
104 0.004958
30 0.00499
37 0.00398
83 0.004964
116 0.002994
129 0.002995
120 0.002989
107 0.005023
109 0.003133
127 0.00303
155 0.002992
169 0.002991
186 0.002991
194 0.0
198 0.000997
138 0.002993
39 0.003986
32 0.004762
72 0.005979
114 0.005184
132 0.006282
136 0.005936
115 0.004004
110 0.003985
125 0.003037
142 0.003961
169 0.004995
187 0.002993
194 0.001995
197 0.004037
116 0.004945
31 0.0
19 0.004034
52 0.001086
84 0.004023
108 0.003989
113 0.003969
101 0.004043
97 0.003989
110 0.002993
130 0.0
157 0.001996
169 0.001897
181 0.002994
189 0.003951
174 0.003955
54 0.005986
12 0.005983
24 0.005013
67 0.005007
84 0.004987
103 0.004987
101 0.004997
95 0.005162
100 0.003003
117 0.004015
135 0.003985
160 0.005023
175 0.002991
181 0.004034
187 0.001996
160 0.003989
46 0.000961
22 0.0
59 0.001011
85 0.000997
112 0.000998
119 0.001865
105 0.000997
98 0.001956
107 0.000998
135 0.001995
161 0.005983
169 0.005981
182 0.005987
187 0.005965
147 0.002002
52 0.005023
22 0.00505
44 0.005094
87 0.00399
113 0.0
118 0.003023
105 0.000969
103 0.000967
110 0.000997
136 0.001999
162 0.003993
174 0.005963
186 0.005978
181 0.005966
115 0.005961
20 0.00598
17 0.006952
48 0.005017
81 0.003997
93 0.002991
104 0.002001
99 0.003022
98 0.0
110 0.002991
136 0.003265
152 0.003023
171 0.002989
182 0.000939
186 0.002993
183 0.0
124 0.002027
24 0.000984
31 0.0
56 0.001017
83 0.000964
94 0.0
103 0.0
98 0.0
101 0.000997
121 0.0
143 0.003024
158 0.000998
178 0.001991
186 0.003009
189 0.003992
194 0.004023
198 0.003988
132 0.005979
47 0.005862
30 0.005967
63 0.005966
99 0.006982
107 0.007966
118 0.007031
106 0.004986
102 0.003989
115 0.003988
143 0.002994
160 0.002999
179 0.002988
184 0.003993
189 0.002997
192 0.003968
184 0.002998
97 0.003053
33 0.002994
42 0.003959
86 0.0
112 0.0
129 0.0
123 0.0
110 0.0
111 0.002025
134 0.004006
152 0.003965
178 0.006984
194 0.005986
198 0.007006
202 0.00599
188 0.004986
116 0.004953
29 0.004985
44 0.002997
72 0.002992
102 0.00299
117 0.00394
115 0.002991
106 0.002981
108 0.0
124 0.003039
153 0.003025
169 0.00399
188 0.002032
196 0.0
200 0.0
198 0.002028
92 0.001914
36 0.003981
31 0.003958
75 0.004007
95 0.003991
113 0.004984
112 0.003992
98 0.004988
98 0.005986
110 0.005971
137 0.005952
163 0.005992
175 0.004986
185 0.003959
190 0.005981
178 0.003012
84 0.006017
24 0.003122
31 0.005987
76 0.005021
96 0.004945
117 0.003981
108 0.003004
99 0.003993
104 0.001992
117 0.002991
145 0.0
169 0.0
178 0.0
186 0.0
190 0.0
186 0.0
78 0.000998
11 0.001996
22 0.002957
65 0.003988
87 0.005
102 0.006027
100 0.006016
92 0.007936
95 0.007976
111 0.007018
139 0.003118
154 0.004979
172 0.000972
179 0.0
182 0.0
178 0.0
92 0.0
34 0.0
25 0.000998
69 0.002992
89 0.00496
112 0.005981
105 0.004997
96 0.006016
96 0.005986
113 0.006975
136 0.004001
156 0.006974
170 0.004166
177 0.006981
183 0.006947
178 0.006986
76 0.005961
23 0.002973
38 0.006094
83 0.003002
102 0.002949
122 0.0
108 0.0
99 0.000963
104 0.001995
128 0.000998
146 0.001994
169 0.000904
183 0.000997
188 0.000999
186 0.002993
76 0.004987
28 0.006029
27 0.006986
68 0.006028
91 0.006092
107 0.006018
110 0.006949
103 0.005994
106 0.005979
119 0.006019
146 0.007976
165 0.00399
175 0.005981
186 0.002992
192 0.001979
186 0.001969
76 0.001981
29 0.001989
35 0.002987
74 0.0
87 0.0
104 0.000966
105 0.002956
101 0.0
105 0.002992
121 0.0
143 0.002994
166 0.0
175 0.0
184 0.0
189 0.0
188 0.000946
113 0.0
40 0.000996
36 0.000982
77 0.001
96 0.000998
116 0.00399
115 0.006006
109 0.004988
105 0.00599
125 0.004986
142 0.005001
166 0.006004
178 0.007979
185 0.003991
189 0.005983
182 0.001997
98 0.003977
34 0.002995
60 0.0
86 0.0
108 0.001995
125 0.001993
123 0.001996
113 0.001029
116 0.002029
137 0.003972
162 0.005956
175 0.006035
189 0.005972
196 0.005984
198 0.006004
173 0.005976
56 0.005985
26 0.005982
49 0.004036
80 0.005982
96 0.003988
109 0.004986
110 0.002992
105 0.004029
112 0.004968
125 0.003989
152 0.003973
175 0.002993
184 0.00399
192 0.003022
195 0.003989
194 0.000998
91 0.002986
